4988010    
4988010    
4988010    
4988010    
4988010    
4988010    
4988010    
4988010    
4988010    
4988010    
4988010    
4988010
4988010
4988010    
4988010    
4988010    
4988010    
4988010    
4988010    
4988010    
4988010    
4988010    
4988010    
4988010    
4988010    
4988010    
4988010    
4988010    
4988010    
4988010    
4988010    
4988010    
4988010    
4988010
4988010    
4988010    
4988010    
4988010
4988010    
4988010    
4988010    
4988010    
4988010    
4988010
4988010    
4988010
4988010    
4988010
4988010    
4988010
4988010    
4988010    
4988010    
4988010    
4988010    
4988010
4988010    
4988010    
4988010    
4988010    
4988010    
4988010    
4988010
4988010    
4988010    
4988010    
4988010    
4988010    
4988010    
4988010    
4988010    
4988010    
4988010
4988010    
4988010    
4988010    
4988010
4988010    
4988010
4988010    
4988010
4988010    
4988010
4988010    
4988010
4988010    
4988010    
4988010    
4988010    
4988010    
4988010    
4988010    
4988010
4988010    
4988010    
4988010    
4988010    
4988010    
4988010    
4988010    
4988010    

02879504
02051504
01723506
02865505
02035508
02864509
02001509
02282503
02046509
02504507
02034502
02895500
02926505
02508501
02874504
02124501
02516504
02881501
02866501
02156508
01929500
02700501
02868503
02871506
02872502
02863503
02505503
02695502
02154506
02125507
02058506
01942508
02655502
02889509
02496500
01964500
02030508
02885505
02023501
01588508
01987508
02026509
02878508
02893508
02671508
02891506
02875500
02892502
02025503
02900509
02033506
02869509
02663505
02121503
02862507
02898508
01763506
02658500
02702503
02053506
02876506
02515508
02897502
02882507
02506509
02502505
02657504
02711502
02283509
02668505
02708509
02707503
02899504
02523501
02880505
02870500
02886501
02138500
02887507
02877502
02888503
02294500
02890500
02011504
02896506
02295506
02127509
02112504
02519502
02588501
02302507
01988504
02894504
02521509
02296502
02495504
02867507
02301501
02873508
01990501
02520503